Data Set 1:Time(s),Data Set 1:Position(m),Data Set 1:Velocity(m/s),Data Set 1:Acceleration(m/s²)
0.0,0.2874999940395355,0.807111230161455,3.5179858866297167
0.05,0.3217000067234039,0.9723888917101756,3.7064093222588657
0.1,0.3761999905109405,1.1784332990646362,3.6763884485871694
0.1499999999999999,0.4399999976158142,1.3718333674801722,3.0071843875411117
0.2,0.515500009059906,1.5209443039364283,1.4066537175281562
0.25,0.5978999733924865,1.5412776503298022,-0.9226777395348494
0.2999999999999999,0.6744999885559082,1.4307778080304463,-3.438639695997596
0.3499999999999999,0.743399977684021,1.222333510716756,-6.17651070157687
0.4,0.8093000054359436,0.7776114013459946,-7.865617976144502
0.45,0.824500024318695,0.2827778789732191,-6.624261887721072
0.5,0.822700023651123,0.0572220153278774,-4.330124034557813
0.55,0.8230999708175659,-0.0401666429307725,-4.00657230689202
0.5999999999999999,0.8238000273704528,-0.2218886547618442,-5.905000295168088
0.65,0.8155000209808348,-0.666888886027866,-7.236175441447599
0.6999999999999998,0.7541000247001647,-1.0732224252488878,-6.159137704490141
0.75,0.6992999911308287,-1.314389142725202,-4.148055245111018
0.8,0.6209999918937683,-1.4832223455111186,-1.9675599572099336
0.8499999999999999,0.5454999804496765,-1.5151111284891767,0.2836747669879287
0.9,0.4657999873161315,-1.4537220862176683,2.4907414651947284
0.95,0.3948000073432922,-1.2604999542236328,4.565925473048368
1.0,0.3371999859809875,-0.9897777438163752,6.363055008796995
1.05,0.2903000116348266,-0.6028888788488173,7.591573305336039
1.1,0.2750999927520752,-0.1767223245567747,7.7250000779275565
1.15,0.2764999866485595,0.188888923989402,7.3799389379995874
1.2,0.294400006532669,0.545444455411699,7.111667151804316
1.25,0.3292999863624572,0.9128333628177636,6.466081223370112
1.3,0.3865000009536743,1.2474445998668664,4.76435241691861
1.35,0.4627000093460083,1.4101112716727795,2.559628622767376
1.4,0.5307000279426574,1.480555534362794,0.6295665454717246
1.45,0.6123999953269958,1.483888857894473,-1.5069141432091149
1.5,0.6855000257492065,1.341611080699496,-3.80895090875802
1.55,0.75,1.0995554261737397,-5.875492831807068
1.6,0.80239999294281,0.7171667615572617,-6.967436660219121
1.65,0.8241000175476074,0.3031668398115371,-6.125586599479494
1.7,0.822700023651123,0.0668333636389838,-4.624476550537863
1.75,0.8248000144958496,-0.0656667020585801,-4.784136642644434
1.8,0.8241000175476074,-0.3357778324021232,-6.304845894560404
1.85,0.7989000082015991,-0.7461667060852056,-6.9337036230681965
1.9,0.7472000122070312,-1.1227777931425316,-5.70533970071946
1.95,0.6793000102043151,-1.3522222638130188,-3.5099698437584728
2.0,0.6082000136375427,-1.4711668259567692,-1.1747222347759827
2.05,0.527899980545044,-1.4746111631393424,1.2050626546512513
2.1,0.4541000127792358,-1.3328888846768263,3.1875624148933945
2.15,0.3926999866962432,-1.1288333601421774,4.634414502867934
2.2,0.339599996805191,-0.8683331973022884,5.949259650560062
2.25,0.3027000129222869,-0.5351110299428313,7.127653163524331
2.3,0.2824000120162963,-0.1287223067548539,7.691727459062767
2.35,0.2899999916553497,0.2780555023087393,7.348734609506742
2.4,0.3138000071048736,0.619722207387288,6.5975309154133726
2.45,0.3526999950408935,0.933611061837938,5.739845740206458
2.5,0.4074999988079071,1.2172221971882733,4.357500319127689
2.55,0.4785999953746795,1.402611070209079,2.32358116794514
2.6,0.5537999868392944,1.4518334137068845,0.2043529793068166
2.65,0.6279000043869019,1.4042223824395066,-1.6698767373591217
2.7,0.6962000131607055,1.278833399216334,-3.4759891437895347
2.75,0.7562000155448912,1.1021110084321784,-5.828611966636454
2.8,0.8206999897956848,0.66994438568751,-7.40928965402239
2.85,0.8251000046730042,0.2105000615119933,-6.280956748459072
2.9,0.8255000114440918,0.0214999583032396,-4.7496301892362975
2.95,0.8258000016212463,-0.1360001497798496,-5.3633939888742255
3.0,0.8230999708175659,-0.4765554269154873,-6.712220673575824
3.05,0.7814000248908995,-0.8892219927575851,-6.604384161807864
3.1,0.728600025177002,-1.2025001645088187,-5.040063699822359
3.15,0.6575999855995178,-1.4205001956886705,-2.69200499227018
3.2,0.5799999833106994,-1.4793887568844688,-0.1274058572304273
3.25,0.5048000216484069,-1.4181109931733895,2.1026535442581906
3.3,0.4334000051021575,-1.243500080373552,3.802066765449679
3.35,0.3792999982833862,-1.0170556108156834,4.997221886375807
3.4,0.3303000032901763,-0.751055628061294,6.143179066755145
3.45,0.29789999127388,-0.3712778455681271,6.68274757486802
3.5,0.29789999127388,-0.0568888750341204,6.710648932206785
3.55,0.2919999957084655,0.2677778237395816,7.099660789525063
3.6,0.3185999989509582,0.6834444734785288,6.815216000433316
3.65,0.3650999963283538,1.0071111387676657,5.451975183354484
3.7,0.4244000017642974,1.2301667034626005,3.9106785699173385
3.75,0.4907000064849853,1.3809443844689284,2.4846603840957484
3.8,0.5623999834060668,1.4966667029592724,0.6290124154385061
3.85,0.6445000171661377,1.5028333498371962,-2.2915439749205597
3.9,0.7240999937057495,1.2701665361722303,-5.205524749593961
3.95,0.7757999897003173,0.922333300113678,-6.816387590434805
4.0,0.8188999891281127,0.519722302754721,-6.859628331881996
4.05,0.8258000016212463,0.1663334833251105,-5.53049358688756
4.1,0.8255000114440918,-0.0093332595295376,-4.665741287631746
4.15,0.8258000016212463,-0.2019999093479577,-5.561791277594033
4.2,0.8141000270843505,-0.5502222312821291,-6.728057526511937
4.25,0.7734000086784362,-0.951166881455318,-6.407562542108859
4.3,0.7150999903678894,-1.2710001567999545,-4.399257861537664
4.35,0.6381999850273132,-1.4166666236188634,-1.7194120144402187
4.4,0.5672000050544738,-1.4119443628523043,0.4622223844498423
4.45,0.4954999983310699,-1.3459999859333058,2.111233918019244
4.5,0.4289000034332275,-1.1921666893694167,3.4986104310294794
4.55,0.3747999966144561,-0.9916667309072296,4.760215725795759
4.6,0.3271999955177307,-0.723777843846213,6.097315095457032
4.65,0.2985999882221221,-0.3726667000187757,7.169383534310751
4.7,0.2881999909877777,0.0209444761276245,7.610494818216497
4.75,0.300599992275238,0.4188334114021736,7.320062514440528
4.8,0.3316999971866607,0.778722365697226,6.3831942970001965
4.85,0.3810000121593475,1.0762223104635844,4.981834793716264
4.9,0.4424000084400177,1.285666644573208,3.4875432898601084
4.95,0.5141000151634216,1.4064164376921138,2.316400217421318
5.0,0.5885999798774719,1.4629995160632705,1.5866928060114267
